0,1,2,3,4,5,6,7,8,9,10,11,12,13,14,15,16,17,18,19,20,21,22,23,24,25,26,27,28,29,30,31,32,33,34,35,36,37,38,39,40,41,42,43,44,45,46,47,48,49,50,51,52,53,54,55,56,57,58,59,60,61,62,63,64,65,66,67,68,69,70,71,72,73,74,75,76,77,78,79,80,81,82,83,84,85,86,87,88,89,90,91,92,93,94,95,96,97,98,99,100,101,102,103,104,105,106,107,108,109,110,111,112,113,114,115,116,117,118,119,120,121,122,123,124,125,126,127,128,129,130,131,132,133,134,135,136,137,138,139,140,141,142,143,144,145,146,147,148,149,150,151,152,153,154,155,156,157,158,159,160,161,162,163,164,165,166,167,168,169,170,171,172,173,174,175,176,177,178,179,180,181,182,183,184,185,186
0.8552123308181762,0.9343629479408264,0.9961389899253843,1.0,0.6409266591072083,0.3957529067993164,0.2335907369852066,0.17953668534755707,0.14671814441680908,0.13706563413143155,0.11776062101125716,0.1235521212220192,0.1042471006512642,0.11583011597394945,0.1003860980272293,0.10231660306453703,0.0907335877418518,0.08494208753108978,0.0752895772457123,0.0810810774564743,0.06370656192302704,0.0617760606110096,0.05598455667495728,0.06756756454706192,0.06563706696033478,0.0810810774564743,0.08301158249378204,0.10617760568857192,0.11583011597394945,0.14671814441680908,0.16409265995025635,0.19305019080638883,0.2007721960544586,0.22586873173713684,0.21814671158790588,0.22586873173713684,0.2084942013025284,0.2162162214517593,0.20270270109176636,0.2104247063398361,0.20463320612907407,0.2104247063398361,0.2007721960544586,0.21235521137714383,0.2007721960544586,0.2104247063398361,0.20463320612907407,0.2200772166252136,0.22200772166252136,0.2471042424440384,0.27799227833747864,0.3339768350124359,0.4054054021835327,0.4942084848880768,0.5637065768241881,0.6351351141929625,0.6814671754837036,0.7451737523078918,0.7239382266998291,0.6872586607933044,0.6698841452598572,0.6718146800994873,0.6891891956329346,0.6872586607933044,0.5173745155334473,0.3088802993297577,0.1756756752729416,0.13706563413143155,0.09652509540319441,0.08301158249378204,0.05598455667495728,0.05791505798697472,0.03474903479218483,0.04247104376554489,0.025096524506807327,0.02702702768146992,0.005791505798697472,0.0154440151527524,0.0,0.009652509354054928,0.005791505798697472,0.0,0.0,0.0,0.0,0.0,0.0,0.0,0.0,0.0,0.0,0.0,0.0,0.0,0.0,0.0,0.0,0.0,0.0,0.0,0.0,0.0,0.0,0.0,0.0,0.0,0.0,0.0,0.0,0.0,0.0,0.0,0.0,0.0,0.0,0.0,0.0,0.0,0.0,0.0,0.0,0.0,0.0,0.0,0.0,0.0,0.0,0.0,0.0,0.0,0.0,0.0,0.0,0.0,0.0,0.0,0.0,0.0,0.0,0.0,0.0,0.0,0.0,0.0,0.0,0.0,0.0,0.0,0.0,0.0,0.0,0.0,0.0,0.0,0.0,0.0,0.0,0.0,0.0,0.0,0.0,0.0,0.0,0.0,0.0,0.0,0.0,0.0,0.0,0.0,0.0,0.0,0.0,0.0,0.0,0.0,0.0,0.0,0.0,0.0,0.0,0.0,0.0,0.0,0.0,0.0,0.0
1.0,0.7458333373069763,0.5333333611488342,0.2666666805744171,0.08333333581686019,0.03750000149011612,0.125,0.17916665971279144,0.22083333134651184,0.22083333134651184,0.23333333432674408,0.23333333432674408,0.23749999701976776,0.23749999701976776,0.25,0.24583333730697632,0.2791666686534881,0.2750000059604645,0.2958333194255829,0.2958333194255829,0.32499998807907104,0.3416666686534881,0.3708333373069763,0.38749998807907104,0.4208333194255829,0.4333333373069763,0.47083333134651184,0.49166667461395264,0.5291666388511658,0.5333333611488342,0.574999988079071,0.5916666388511658,0.6208333373069763,0.5958333611488342,0.574999988079071,0.512499988079071,0.47083333134651184,0.40416666865348816,0.36666667461395264,0.3583333194255829,0.3499999940395355,0.3291666805744171,0.32083332538604736,0.3083333373069763,0.3125,0.30416667461395264,0.3125,0.3083333373069763,0.3166666626930237,0.3125,0.3166666626930237,0.30416667461395264,0.3083333373069763,0.3000000119209289,0.30416667461395264,0.28333333134651184,0.3000000119209289,0.2958333194255829,0.3125,0.2916666567325592,0.30416667461395264,0.2874999940395355,0.30416667461395264,0.3000000119209289,0.2958333194255829,0.28333333134651184,0.2874999940395355,0.3000000119209289,0.28333333134651184,0.3000000119209289,0.2958333194255829,0.3333333432674408,0.3166666626930237,0.3416666686534881,0.3333333432674408,0.3583333194255829,0.3333333432674408,0.3375000059604645,0.3083333373069763,0.3083333373069763,0.2874999940395355,0.28333333134651184,0.25833332538604736,0.2750000059604645,0.2291666716337204,0.24166665971279144,0.2291666716337204,0.23333333432674408,0.21250000596046448,0.22499999403953552,0.2083333283662796,0.22083333134651184,0.20416666567325592,0.20416666567325592,0.20000000298023224,0.21666666865348813,0.21250000596046448,0.22499999403953552,0.21250000596046448,0.25833332538604736,0.3083333373069763,0.44583332538604736,0.5541666746139526,0.5291666388511658,0.3291666805744171,0.40833333134651184,0.6833333373069763,0.9583333134651184,0.9333333373069763,0.6916666626930237,0.4375,0.19166666269302368,0.012500000186264513,0.0,0.05416666716337204,0.12916666269302368,0.1458333283662796,0.15000000596046448,0.14166666567325592,0.16249999403953552,0.16249999403953552,0.17083333432674408,0.15833333134651184,0.17499999701976776,0.18333333730697632,0.19166666269302368,0.20000000298023224,0.22083333134651184,0.0,0.0,0.0,0.0,0.0,0.0,0.0,0.0,0.0,0.0,0.0,0.0,0.0,0.0,0.0,0.0,0.0,0.0,0.0,0.0,0.0,0.0,0.0,0.0,0.0,0.0,0.0,0.0,0.0,0.0,0.0,0.0,0.0,0.0,0.0,0.0,0.0,0.0,0.0,0.0,0.0,0.0,0.0,0.0,0.0,0.0,0.0,0.0,0.0,0.0,0.0,0.0,0.0,0.0,0.0,0.0,0.0,0.0,0.0
1.0,0.7641654014587401,0.44104135036468506,0.11179172992706297,0.05206738039851189,0.11332312226295473,0.07197549939155579,0.05053598806262016,0.05513016879558563,0.04134762659668922,0.032159265130758286,0.01837672293186188,0.022970903664827343,0.026033690199255943,0.012251148931682108,0.01837672293186188,0.027565084397792816,0.04134762659668922,0.0597243495285511,0.06891270726919174,0.10107197612524033,0.13476262986660004,0.1516079604625702,0.18989279866218567,0.223583459854126,0.2526799440383911,0.28790199756622314,0.30781009793281555,0.3369065821170807,0.3568147122859955,0.35375192761421204,0.3568147122859955,0.36140888929367065,0.3522205352783203,0.33996936678886414,0.3169984817504883,0.30168452858924866,0.2924961745738983,0.258805513381958,0.22511485219001767,0.20826952159404755,0.18989279866218567,0.19142419099807736,0.18836140632629397,0.18529862165451047,0.20520673692226407,0.22052067518234247,0.2434915751218796,0.2695252597332001,0.2787136435508728,0.27565082907676697,0.23583461344242093,0.19295558333396912,0.18223583698272705,0.18070444464683527,0.1791730523109436,0.18683001399040225,0.18989279866218567,0.19142419099807736,0.18529862165451047,0.18989279866218567,0.19601838290691373,0.20673812925815585,0.3522205352783203,0.6554364562034607,0.9096477627754211,0.7381317019462585,0.38591116666793823,0.11179172992706297,0.0,0.05666156113147736,0.12251148372888564,0.11638591438531876,0.10872894525527954,0.09035222232341766,0.08575803786516188,0.08882082998752595,0.09035222232341766,0.08728943020105363,0.0,0.0,0.0,0.0,0.0,0.0,0.0,0.0,0.0,0.0,0.0,0.0,0.0,0.0,0.0,0.0,0.0,0.0,0.0,0.0,0.0,0.0,0.0,0.0,0.0,0.0,0.0,0.0,0.0,0.0,0.0,0.0,0.0,0.0,0.0,0.0,0.0,0.0,0.0,0.0,0.0,0.0,0.0,0.0,0.0,0.0,0.0,0.0,0.0,0.0,0.0,0.0,0.0,0.0,0.0,0.0,0.0,0.0,0.0,0.0,0.0,0.0,0.0,0.0,0.0,0.0,0.0,0.0,0.0,0.0,0.0,0.0,0.0,0.0,0.0,0.0,0.0,0.0,0.0,0.0,0.0,0.0,0.0,0.0,0.0,0.0,0.0,0.0,0.0,0.0,0.0,0.0,0.0,0.0,0.0,0.0,0.0,0.0,0.0,0.0,0.0,0.0,0.0,0.0,0.0,0.0,0.0,0.0
0.9806950092315674,0.7799227833747863,0.15057915449142456,0.03861003741621971,0.11583011597394945,0.11196911334991456,0.08880309015512465,0.16988417506217957,0.15444014966487885,0.1235521212220192,0.15444014966487885,0.2200772166252136,0.2895752787590027,0.29343628883361816,0.29343628883361816,0.29343628883361816,0.2895752787590027,0.2857142984867096,0.31660231947898865,0.31660231947898865,0.3127413094043732,0.30501931905746454,0.3243243098258972,0.31660231947898865,0.32046332955360407,0.3397683501243592,0.35907337069511414,0.35907337069511414,0.37837839126586914,0.39768341183662415,0.4169884026050568,0.4440154433250427,0.4671814739704132,0.4942084848880768,0.5212355256080627,0.5405405163764954,0.5559845566749573,0.5405405163764954,0.5444015264511108,0.5444015264511108,0.5019304752349854,0.4633204638957977,0.4285714328289032,0.3667953610420227,0.33590734004974365,0.3011583089828491,0.29343628883361816,0.2895752787590027,0.26640927791595453,0.2548262476921081,0.27799227833747864,0.28185328841209406,0.2702702581882477,0.25868725776672363,0.27413126826286316,0.27413126826286316,0.2548262476921081,0.2471042424440384,0.2548262476921081,0.2471042424440384,0.2471042424440384,0.24324324727058408,0.2625482678413391,0.29729729890823364,0.2895752787590027,0.2857142984867096,0.27799227833747864,0.26640927791595453,0.26640927791595453,0.2548262476921081,0.2548262476921081,0.29729729890823364,0.28185328841209406,0.2471042424440384,0.25868725776672363,0.27413126826286316,0.27413126826286316,0.2702702581882477,0.27799227833747864,0.2895752787590027,0.2857142984867096,0.2625482678413391,0.27799227833747864,0.29343628883361816,0.29729729890823364,0.3088802993297577,0.42471042275428766,0.7297297120094299,1.0,0.6447876691818237,0.08880309015512465,0.0,0.07722007483243942,0.08880309015512465,0.07722007483243942,0.14671814441680908,0.13513512909412384,0.11196911334991456,0.1621621549129486,0.23938223719596863,0.2702702581882477,0.2471042424440384,0.25868725776672363,0.2702702581882477,0.0,0.0,0.0,0.0,0.0,0.0,0.0,0.0,0.0,0.0,0.0,0.0,0.0,0.0,0.0,0.0,0.0,0.0,0.0,0.0,0.0,0.0,0.0,0.0,0.0,0.0,0.0,0.0,0.0,0.0,0.0,0.0,0.0,0.0,0.0,0.0,0.0,0.0,0.0,0.0,0.0,0.0,0.0,0.0,0.0,0.0,0.0,0.0,0.0,0.0,0.0,0.0,0.0,0.0,0.0,0.0,0.0,0.0,0.0,0.0,0.0,0.0,0.0,0.0,0.0,0.0,0.0,0.0,0.0,0.0,0.0,0.0,0.0,0.0,0.0,0.0,0.0,0.0,0.0,0.0,0.0,0.0,0.0
0.963235318660736,0.8860294222831726,0.30514705181121826,0.011029412038624287,0.029411764815449715,0.0882352963089943,0.1323529481887817,0.1764705926179886,0.16911764442920685,0.15073528885841367,0.1764705926179886,0.20220588147640228,0.2757352888584137,0.30514705181121826,0.31985294818878174,0.31617647409439087,0.3125,0.3125,0.33088234066963196,0.31985294818878174,0.30147057771682734,0.3345588147640228,0.3529411852359772,0.3492647111415863,0.34191176295280457,0.3529411852359772,0.37132352590560913,0.37132352590560913,0.3970588147640228,0.419117659330368,0.4632352888584137,0.5,0.5110294222831726,0.529411792755127,0.5588235259056091,0.5588235259056091,0.5514705777168274,0.5220588445663452,0.5036764740943909,0.4632352888584137,0.40441176295280457,0.35661765933036804,0.3492647111415863,0.31617647409439087,0.2904411852359772,0.3088235259056092,0.3125,0.2904411852359772,0.2610294222831726,0.25367647409439087,0.2757352888584137,0.2757352888584137,0.2647058963775635,0.26838234066963196,0.25735294818878174,0.25,0.23897059261798856,0.25367647409439087,0.2610294222831726,0.26838234066963196,0.26838234066963196,0.2867647111415863,0.30147057771682734,0.28308823704719543,0.2720588147640228,0.2720588147640228,0.2904411852359772,0.2757352888584137,0.25367647409439087,0.27941176295280457,0.27941176295280457,0.2867647111415863,0.2720588147640228,0.26838234066963196,0.2867647111415863,0.26838234066963196,0.25367647409439087,0.28308823704719543,0.2904411852359772,0.2904411852359772,0.27941176295280457,0.2867647111415863,0.30147057771682734,0.3125,0.3382352888584137,0.4926470518112183,0.8051470518112183,1.0,0.6029411554336548,0.05147058889269829,0.0,0.05514705926179886,0.08455882221460342,0.09558823704719543,0.17279411852359772,0.18014705181121823,0.12867647409439087,0.15073528885841367,0.20220588147640228,0.2757352888584137,0.29779410362243647,0.29411765933036804,0.30147057771682734,0.30514705181121826,0.2904411852359772,0.0,0.0,0.0,0.0,0.0,0.0,0.0,0.0,0.0,0.0,0.0,0.0,0.0,0.0,0.0,0.0,0.0,0.0,0.0,0.0,0.0,0.0,0.0,0.0,0.0,0.0,0.0,0.0,0.0,0.0,0.0,0.0,0.0,0.0,0.0,0.0,0.0,0.0,0.0,0.0,0.0,0.0,0.0,0.0,0.0,0.0,0.0,0.0,0.0,0.0,0.0,0.0,0.0,0.0,0.0,0.0,0.0,0.0,0.0,0.0,0.0,0.0,0.0,0.0,0.0,0.0,0.0,0.0,0.0,0.0,0.0,0.0,0.0,0.0,0.0,0.0,0.0,0.0,0.0,0.0,0.0,0.0
0.9157509207725525,0.5641025900840759,0.5824176073074341,0.5860806107521057,0.5750916004180908,0.5641025900840759,0.5384615659713745,0.4542124569416046,0.3076923191547394,0.1428571492433548,0.0,0.09157509356737135,0.08058608323335646,0.08424908667802809,0.10989011079072952,0.14652015268802643,0.13919414579868317,0.14652015268802643,0.14652015268802643,0.16117216646671295,0.16117216646671295,0.1684981733560562,0.16117216646671295,0.15750916302204132,0.16117216646671295,0.16483516991138458,0.15018315613269803,0.16117216646671295,0.15750916302204132,0.17582418024539948,0.1794871836900711,0.1978022009134293,0.21245421469211576,0.2271062284708023,0.2564102709293365,0.27838829159736633,0.2967033088207245,0.31501832604408264,0.3223443329334259,0.3223443329334259,0.3186813294887543,0.3186813294887543,0.2967033088207245,0.30036631226539606,0.29304030537605286,0.282051295042038,0.26739928126335144,0.2747252881526947,0.2564102709293365,0.2600732743740082,0.2564102709293365,0.26739928126335144,0.2637362778186798,0.2490842491388321,0.2344322353601456,0.2454212456941605,0.26739928126335144,0.2637362778186798,0.2564102709293365,0.2600732743740082,0.2564102709293365,0.2564102709293365,0.25274726748466486,0.2380952388048172,0.2380952388048172,0.2344322353601456,0.2161172181367874,0.24175824224948883,0.2161172181367874,0.2161172181367874,0.2271062284708023,0.2161172181367874,0.21978022158145905,0.2344322353601456,0.20879121124744413,0.2014652043581009,0.21245421469211576,0.20879121124744413,0.22344322502613068,0.2344322353601456,0.2344322353601456,0.2490842491388321,0.2564102709293365,0.2380952388048172,0.2344322353601456,0.23076923191547397,0.20879121124744413,0.2161172181367874,0.1978022009134293,0.20512820780277247,0.2161172181367874,0.21245421469211576,0.2271062284708023,0.2637362778186798,0.3589743673801422,1.0,0.5714285969734192,0.5677655935287476,0.6043956279754639,0.6666666865348816,0.6959707140922545,0.7545787692070006,0.7435897588729857,0.6300366520881653,0.46153846383094793,0.25274726748466486,0.20879121124744413,0.1941391974687576,0.23076923191547397,0.27838829159736633,0.2564102709293365,0.2271062284708023,0.2344322353601456,0.190476194024086,0.17582418024539948,0.1941391974687576,0.16117216646671295,0.1868131905794144,0.15018315613269803,0.16483516991138458,0.0,0.0,0.0,0.0,0.0,0.0,0.0,0.0,0.0,0.0,0.0,0.0,0.0,0.0,0.0,0.0,0.0,0.0,0.0,0.0,0.0,0.0,0.0,0.0,0.0,0.0,0.0,0.0,0.0,0.0,0.0,0.0,0.0,0.0,0.0,0.0,0.0,0.0,0.0,0.0,0.0,0.0,0.0,0.0,0.0,0.0,0.0,0.0,0.0,0.0,0.0,0.0,0.0,0.0,0.0,0.0,0.0,0.0,0.0,0.0,0.0,0.0,0.0,0.0,0.0,0.0,0.0
0.9655172228813171,0.8879310488700866,0.47844827175140386,0.1853448301553726,0.09482758492231368,0.09913793206214903,0.0517241396009922,0.07758620381355284,0.06896551698446274,0.0732758641242981,0.043103449046611786,0.06034482643008232,0.0258620698004961,0.03448275849223137,0.0,0.0258620698004961,0.004310344811528921,0.03017241321504116,0.01293103490024805,0.03879310190677642,0.017241379246115685,0.047413792461156845,0.03017241321504116,0.05603448301553726,0.05603448301553726,0.08189655095338821,0.08620689809322357,0.12068965286016464,0.10775861889123917,0.14224137365818024,0.14224137365818024,0.17241379618644714,0.17241379618644714,0.1939655244350433,0.15086206793785095,0.15948276221752167,0.12068965286016464,0.1034482792019844,0.0732758641242981,0.0732758641242981,0.043103449046611786,0.03879310190677642,0.0258620698004961,0.043103449046611786,0.03448275849223137,0.03448275849223137,0.03017241321504116,0.03017241321504116,0.03448275849223137,0.03017241321504116,0.03448275849223137,0.043103449046611786,0.03017241321504116,0.03448275849223137,0.03448275849223137,0.03879310190677642,0.03879310190677642,0.0517241396009922,0.03017241321504116,0.0517241396009922,0.03448275849223137,0.03448275849223137,0.017241379246115685,0.03448275849223137,0.02155172452330589,0.043103449046611786,0.017241379246115685,0.03017241321504116,0.0258620698004961,0.03448275849223137,0.017241379246115685,0.03448275849223137,0.02155172452330589,0.03448275849223137,0.02155172452330589,0.047413792461156845,0.0258620698004961,0.043103449046611786,0.02155172452330589,0.03879310190677642,0.0258620698004961,0.043103449046611786,0.03017241321504116,0.043103449046611786,0.0258620698004961,0.0517241396009922,0.03017241321504116,0.043103449046611786,0.03017241321504116,0.047413792461156845,0.03448275849223137,0.047413792461156845,0.0258620698004961,0.047413792461156845,0.03879310190677642,0.047413792461156845,0.043103449046611786,0.0517241396009922,0.03017241321504116,0.0517241396009922,0.03879310190677642,0.05603448301553726,0.043103449046611786,0.047413792461156845,0.047413792461156845,0.0517241396009922,0.043103449046611786,0.06465516984462738,0.043103449046611786,0.047413792461156845,0.03879310190677642,0.0517241396009922,0.043103449046611786,0.06034482643008232,0.047413792461156845,0.06034482643008232,0.03879310190677642,0.05603448301553726,0.043103449046611786,0.05603448301553726,0.043103449046611786,0.06896551698446274,0.043103449046611786,0.06896551698446274,0.0517241396009922,0.0732758641242981,0.06034482643008232,0.08189655095338821,0.07758620381355284,0.08620689809322357,0.0732758641242981,0.08620689809322357,0.06896551698446274,0.08189655095338821,0.07758620381355284,0.07758620381355284,0.08189655095338821,0.09913793206214903,0.08189655095338821,0.09051723778247832,0.08620689809322357,0.09482758492231368,0.09051723778247832,0.11206896603107452,0.11206896603107452,0.1465517282485962,0.15086206793785095,0.18103447556495664,0.17241379618644714,0.20258620381355283,0.15948276221752167,0.1767241358757019,0.1465517282485962,0.12931033968925476,0.09913793206214903,0.09482758492231368,0.09051723778247832,0.08189655095338821,0.0732758641242981,0.09051723778247832,0.07758620381355284,0.09482758492231368,0.08189655095338821,0.09051723778247832,0.08620689809322357,0.11637931317090988,0.15948276221752167,0.2629310488700866,0.48275861144065857,0.7715517282485963,1.0,0.8836206793785094,0.4224137961864472,0.1465517282485962,0.10775861889123917,0.125,0.07758620381355284,0.07758620381355284,0.047413792461156845,0.07758620381355284,0.047413792461156845,0.06896551698446274,0.06034482643008232,0.06896551698446274,0.06465516984462738,0.07758620381355284,0.06896551698446274
0.836755633354187,0.7782340645790099,0.7238193154335022,0.6519507169723511,0.581108808517456,0.47741273045539856,0.38090348243713373,0.29568788409233093,0.24845996499061584,0.21971252560615537,0.18993839621543884,0.1139630377292633,0.03696098551154137,0.0,0.08418890833854675,0.15605749189853668,0.17864476144313812,0.20020534098148343,0.21047228574752808,0.21047228574752808,0.25051334500312805,0.2772074043750763,0.29979467391967773,0.32854208350181574,0.35420945286750793,0.3624230027198792,0.36139631271362305,0.36344969272613525,0.3696098625659943,0.3726899325847626,0.3911704421043396,0.3870636522769928,0.3942505121231079,0.4045174419879913,0.4271047115325928,0.4363449811935425,0.45687884092330927,0.44866529107093805,0.46611911058425903,0.47433266043663025,0.4928131401538849,0.4928131401538849,0.4969199299812317,0.4969199299812317,0.5,0.4887063801288605,0.4866529703140258,0.46714580059051514,0.45687884092330927,0.4373716711997986,0.41683778166770935,0.3870636522769928,0.3737166225910186,0.34907597303390503,0.3377823531627655,0.33572894334793085,0.3244353234767914,0.31622177362442017,0.3193018436431885,0.3141683638095856,0.3182751536369324,0.30698153376579285,0.3080082237720489,0.30595481395721436,0.3131416738033294,0.30184805393218994,0.30903491377830505,0.30698153376579285,0.31211498379707336,0.3131416738033294,0.3244353234767914,0.3213552236557007,0.3254620134830475,0.3264887034893036,0.33572894334793085,0.3305954933166504,0.3388090431690216,0.3347022533416748,0.342915803194046,0.3336755633354187,0.3449692130088806,0.3459959030151367,0.34804928302764887,0.34394249320030207,0.35010266304016113,0.35420945286750793,0.35523614287376404,0.35420945286750793,0.35728952288627625,0.35318276286125183,0.35934290289878845,0.3665297627449036,0.36447638273239136,0.3624230027198792,0.37166324257850647,0.36447638273239136,0.3767967224121094,0.38090348243713373,0.3788501024246216,0.38090348243713373,0.39733058214187617,0.4065708518028259,0.45687884092330927,0.6950718760490417,1.0,0.9804928302764893,0.9558521509170531,0.8963038921356201,0.8470225930213928,0.7864476442337037,0.7032853960990906,0.5965092182159424,0.4897330701351166,0.39630389213562006,0.3295688033103943,0.2885010242462158,0.2248459905385971,0.14065708220005035,0.06673511117696762,0.10985626280307768,0.19507186114788053,0.23716633021831512,0.2556468248367309,0.2556468248367309,0.2638603746891022,0.2823408544063568,0.0,0.0,0.0,0.0,0.0,0.0,0.0,0.0,0.0,0.0,0.0,0.0,0.0,0.0,0.0,0.0,0.0,0.0,0.0,0.0,0.0,0.0,0.0,0.0,0.0,0.0,0.0,0.0,0.0,0.0,0.0,0.0,0.0,0.0,0.0,0.0,0.0,0.0,0.0,0.0,0.0,0.0,0.0,0.0,0.0,0.0,0.0,0.0,0.0,0.0,0.0,0.0,0.0,0.0,0.0,0.0,0.0,0.0,0.0,0.0,0.0
1.0,0.5185185074806212,0.5802469253540039,0.6172839403152466,0.6707819104194641,0.6748971343040465,0.7448559403419495,0.7407407164573668,0.6995884776115417,0.5720164775848389,0.4156378507614136,0.23456789553165436,0.2551440298557281,0.193415641784668,0.13991770148277283,0.09876543283462524,0.12345679104328156,0.09465020895004272,0.09053497761487962,0.03292180970311165,0.037037037312984473,0.04526748880743981,0.06172839552164078,0.04938271641731262,0.0658436194062233,0.05761316791176796,0.07407407462596893,0.05349794402718544,0.06995885074138641,0.05761316791176796,0.07818929851055145,0.06172839552164078,0.07407407462596893,0.07407407462596893,0.09876543283462524,0.09053497761487962,0.13991770148277283,0.13991770148277283,0.1810699552297592,0.1975308656692505,0.2222222238779068,0.23456789553165436,0.2633744776248932,0.2551440298557281,0.2716049253940582,0.2592592537403106,0.27983540296554565,0.2469135820865631,0.24279835820198056,0.2263374477624893,0.23868313431739807,0.21810699999332428,0.23456789553165436,0.2263374477624893,0.2222222238779068,0.21399177610874176,0.23045267164707184,0.20987653732299805,0.21810699999332428,0.20987653732299805,0.21810699999332428,0.21399177610874176,0.21399177610874176,0.20576131343841553,0.21399177610874176,0.1975308656692505,0.21399177610874176,0.20576131343841553,0.20987653732299805,0.1975308656692505,0.201646089553833,0.1851851791143417,0.193415641784668,0.1810699552297592,0.1810699552297592,0.1810699552297592,0.1851851791143417,0.1646090596914291,0.1851851791143417,0.16872428357601163,0.1810699552297592,0.1646090596914291,0.1851851791143417,0.1646090596914291,0.1851851791143417,0.17283950746059415,0.1851851791143417,0.1810699552297592,0.18930041790008545,0.16872428357601163,0.1810699552297592,0.1646090596914291,0.1851851791143417,0.17283950746059415,0.193415641784668,0.20576131343841553,0.27572017908096313,0.7366254925727843,0.7654321193695068,0.5020576119422913,0.5390946269035339,0.5349794030189513,0.5555555820465088,0.5308641791343689,0.5102880597114562,0.3703703582286834,0.23868313431739807,0.05349794402718544,0.0,0.09053497761487962,0.12345679104328156,0.10699588805437088,0.18930041790008545,0.17695473134517667,0.1358024626970291,0.09053497761487962,0.10699588805437088,0.0,0.0,0.0,0.0,0.0,0.0,0.0,0.0,0.0,0.0,0.0,0.0,0.0,0.0,0.0,0.0,0.0,0.0,0.0,0.0,0.0,0.0,0.0,0.0,0.0,0.0,0.0,0.0,0.0,0.0,0.0,0.0,0.0,0.0,0.0,0.0,0.0,0.0,0.0,0.0,0.0,0.0,0.0,0.0,0.0,0.0,0.0,0.0,0.0,0.0,0.0,0.0,0.0,0.0,0.0,0.0,0.0,0.0,0.0,0.0,0.0,0.0,0.0,0.0,0.0,0.0,0.0,0.0,0.0,0.0
0.978813588619232,0.7838982939720154,0.1906779706478119,0.029661016538739204,0.06355932354927063,0.11016949266195296,0.11440677940845488,0.12711864709854123,0.16949152946472168,0.16101695597171783,0.14406779408454895,0.18644067645072937,0.22033898532390597,0.25847458839416504,0.30084747076034546,0.31355932354927063,0.30084747076034546,0.30084747076034546,0.31779661774635315,0.31779661774635315,0.3050847351551056,0.30932202935218805,0.33474576473236084,0.347457617521286,0.33474576473236084,0.33474576473236084,0.36864405870437617,0.3855932056903839,0.3983050882816314,0.42796608805656433,0.4618644118309021,0.4830508530139923,0.47457626461982727,0.5042372941970825,0.5423728823661804,0.5508474707603456,0.5296609997749329,0.49576270580291754,0.47457626461982727,0.43644067645072937,0.3983050882816314,0.3644067943096161,0.35169491171836853,0.3432203531265259,0.3262711763381958,0.3050847351551056,0.3050847351551056,0.32203391194343567,0.29661017656326294,0.27542373538017273,0.2923728823661804,0.3050847351551056,0.29661017656326294,0.29661017656326294,0.30084747076034546,0.2923728823661804,0.27542373538017273,0.2669491469860077,0.2881355881690979,0.30932202935218805,0.30084747076034546,0.29661017656326294,0.3389830589294433,0.3389830589294433,0.30084747076034546,0.30084747076034546,0.29661017656326294,0.3050847351551056,0.31355932354927063,0.3262711763381958,0.30932202935218805,0.29661017656326294,0.29661017656326294,0.2923728823661804,0.31355932354927063,0.31355932354927063,0.2881355881690979,0.2881355881690979,0.30932202935218805,0.31779661774635315,0.31779661774635315,0.30084747076034546,0.31355932354927063,0.3432203531265259,0.37288135290145874,0.4830508530139923,0.7711864113807678,1.0,0.5169491767883301,0.0,0.0042372881434857845,0.0974576249718666,0.11016949266195296,0.08898305147886275,0.18220339715480804,0.21186441183090207,0.16525423526763916,0.16949152946472168,0.21186441183090207,0.29661017656326294,0.32203391194343567,0.31779661774635315,0.3262711763381958,0.3262711763381958,0.3305084705352783,0.0,0.0,0.0,0.0,0.0,0.0,0.0,0.0,0.0,0.0,0.0,0.0,0.0,0.0,0.0,0.0,0.0,0.0,0.0,0.0,0.0,0.0,0.0,0.0,0.0,0.0,0.0,0.0,0.0,0.0,0.0,0.0,0.0,0.0,0.0,0.0,0.0,0.0,0.0,0.0,0.0,0.0,0.0,0.0,0.0,0.0,0.0,0.0,0.0,0.0,0.0,0.0,0.0,0.0,0.0,0.0,0.0,0.0,0.0,0.0,0.0,0.0,0.0,0.0,0.0,0.0,0.0,0.0,0.0,0.0,0.0,0.0,0.0,0.0,0.0,0.0,0.0,0.0,0.0,0.0,0.0,0.0
0.8389057517051696,0.6534954309463501,0.021276595070958138,0.006079027429223061,0.03647416457533836,0.04559270665049553,0.03951367735862732,0.04255319014191628,0.03343465179204941,0.03647416457533836,0.03343465179204941,0.03951367735862732,0.03343465179204941,0.04255319014191628,0.03647416457533836,0.03951367735862732,0.03343465179204941,0.03951367735862732,0.03343465179204941,0.03951367735862732,0.0273556225001812,0.04255319014191628,0.03647416457533836,0.03647416457533836,0.03343465179204941,0.04255319014191628,0.03647416457533836,0.04559270665049553,0.03343465179204941,0.03647416457533836,0.0273556225001812,0.03951367735862732,0.01823708228766918,0.021276595070958138,0.0,0.021276595070958138,0.0273556225001812,0.05167173221707344,0.06686930358409882,0.09422492235898973,0.10334346443414688,0.11854103207588196,0.12462005764245986,0.13069908320903778,0.12765957415103912,0.1367781162261963,0.12462005764245986,0.13069908320903778,0.12462005764245986,0.1428571492433548,0.13069908320903778,0.13069908320903778,0.13069908320903778,0.13373860716819763,0.12462005764245986,0.13373860716819763,0.1215805485844612,0.1215805485844612,0.11246200650930405,0.12462005764245986,0.1155015230178833,0.1215805485844612,0.10638298094272612,0.11854103207588196,0.1155015230178833,0.12765957415103912,0.11854103207588196,0.13373860716819763,0.1215805485844612,0.1367781162261963,0.12765957415103912,0.13069908320903778,0.12462005764245986,0.1367781162261963,0.13373860716819763,0.15805470943450928,0.1702127605676651,0.1762917935848236,0.1823708266019821,0.20060789585113523,0.18844984471797943,0.19148936867713928,0.18844984471797943,0.17933130264282227,0.19756838679313657,0.20060789585113523,0.15501520037651062,0.1428571492433548,0.11246200650930405,0.12765957415103912,0.1094224900007248,0.11854103207588196,0.11246200650930405,0.1155015230178833,0.10334346443414688,0.10334346443414688,0.05775076150894165,0.021276595070958138,0.01823708228766918,0.3130699098110199,0.759878396987915,1.0,0.3951367735862732,0.021276595070958138,0.06990881264209747,0.09118541330099104,0.07598784565925598,0.09118541330099104,0.060790274292230606,0.07294832915067671,0.07294832915067671,0.07294832915067671,0.06990881264209747,0.06990881264209747,0.06382978707551956,0.06686930358409882,0.060790274292230606,0.07902735471725462,0.060790274292230606,0.06990881264209747,0.0,0.0,0.0,0.0,0.0,0.0,0.0,0.0,0.0,0.0,0.0,0.0,0.0,0.0,0.0,0.0,0.0,0.0,0.0,0.0,0.0,0.0,0.0,0.0,0.0,0.0,0.0,0.0,0.0,0.0,0.0,0.0,0.0,0.0,0.0,0.0,0.0,0.0,0.0,0.0,0.0,0.0,0.0,0.0,0.0,0.0,0.0,0.0,0.0,0.0,0.0,0.0,0.0,0.0,0.0,0.0,0.0,0.0,0.0,0.0,0.0,0.0,0.0,0.0,0.0,0.0,0.0
0.8815330862998961,0.3937282264232635,0.445993036031723,0.4738675951957703,0.449477344751358,0.4425086975097656,0.47038328647613525,0.43205574154853826,0.31358885765075684,0.18815331161022184,0.03484320640563965,0.04529616609215736,0.05574912950396538,0.0,0.017421603202819824,0.02787456475198269,0.05923344939947128,0.08362369239330292,0.02787456475198269,0.02090592309832573,0.0696864128112793,0.03135888651013374,0.05574912950396538,0.0662020891904831,0.0662020891904831,0.05226480960845947,0.04181184619665146,0.04878048598766327,0.02090592309832573,0.04181184619665146,0.0696864128112793,0.09059233218431471,0.09059233218431471,0.10104529559612274,0.1393728256225586,0.16724738478660583,0.20209059119224548,0.2264808416366577,0.2404181212186813,0.24738675355911252,0.2787456512451172,0.2787456512451172,0.2857142984867096,0.26132404804229736,0.2543554008007049,0.2543554008007049,0.2229965180158615,0.2229965180158615,0.21254354715347287,0.19512194395065308,0.18815331161022184,0.18815331161022184,0.18815331161022184,0.18815331161022184,0.17421603202819824,0.17073170840740204,0.18118466436862943,0.18466898798942563,0.18118466436862943,0.17073170840740204,0.16724738478660583,0.1567944288253784,0.16724738478660583,0.16376306116580963,0.16027875244617462,0.16027875244617462,0.16027875244617462,0.1533101052045822,0.1463414579629898,0.149825781583786,0.1428571492433548,0.1428571492433548,0.1393728256225586,0.1393728256225586,0.1428571492433548,0.1358885020017624,0.1324041783809662,0.12195122241973876,0.1324041783809662,0.12891985476016998,0.12891985476016998,0.11846689879894257,0.12195122241973876,0.1324041783809662,0.12891985476016998,0.12195122241973876,0.12195122241973876,0.12195122241973876,0.1324041783809662,0.1324041783809662,0.12891985476016998,0.1358885020017624,0.1358885020017624,0.1428571492433548,0.149825781583786,0.19512194395065308,0.45993030071258545,1.0,0.43205574154853826,0.4738675951957703,0.4912891983985901,0.5191637873649597,0.5052264928817749,0.5087108016014099,0.4738675951957703,0.39721253514289856,0.2787456512451172,0.11498257517814636,0.06271777302026749,0.08362369239330292,0.0696864128112793,0.05226480960845947,0.0696864128112793,0.07317072898149489,0.08013937622308731,0.05574912950396538,0.03484320640563965,0.03135888651013374,0.0,0.0,0.0,0.0,0.0,0.0,0.0,0.0,0.0,0.0,0.0,0.0,0.0,0.0,0.0,0.0,0.0,0.0,0.0,0.0,0.0,0.0,0.0,0.0,0.0,0.0,0.0,0.0,0.0,0.0,0.0,0.0,0.0,0.0,0.0,0.0,0.0,0.0,0.0,0.0,0.0,0.0,0.0,0.0,0.0,0.0,0.0,0.0,0.0,0.0,0.0,0.0,0.0,0.0,0.0,0.0,0.0,0.0,0.0,0.0,0.0,0.0,0.0,0.0,0.0,0.0,0.0,0.0,0.0
1.0,0.8910369277000427,0.4692443013191223,0.24428822100162503,0.1792618632316589,0.15817223489284515,0.14235500991344452,0.13181018829345703,0.14235500991344452,0.1247803196310997,0.1353251338005066,0.12302284687757492,0.12829525768756866,0.11775043606758116,0.1247803196310997,0.11247803270816802,0.11950790882110596,0.1054481565952301,0.1142354980111122,0.1142354980111122,0.12653778493404388,0.12302284687757492,0.1405975371599197,0.14235500991344452,0.16520211100578308,0.17047451436519623,0.1950790882110596,0.19683656096458435,0.21265378594398496,0.20210896432399747,0.20386643707752228,0.18453426659107208,0.18453426659107208,0.16695958375930786,0.16695958375930786,0.16520211100578308,0.1739894598722458,0.1634446382522583,0.16871704161167145,0.15817223489284515,0.172231987118721,0.16871704161167145,0.17750439047813416,0.1634446382522583,0.1810193359851837,0.20386643707752228,0.23725834488868716,0.28471001982688904,0.3550087809562683,0.4305799603462219,0.5430579781532288,0.6256590485572815,0.6994727849960327,0.7012302279472351,0.6643233895301819,0.61687171459198,0.5975395441055298,0.57469242811203,0.6080843806266785,0.5043936967849731,0.30228471755981445,0.1405975371599197,0.10017574578523636,0.06854130327701569,0.056239016354084015,0.033391915261745446,0.04042179137468337,0.026362039148807526,0.02987697720527649,0.015817223116755486,0.021089630201458927,0.0,0.0,0.0,0.0,0.0,0.0,0.0,0.0,0.0,0.0,0.0,0.0,0.0,0.0,0.0,0.0,0.0,0.0,0.0,0.0,0.0,0.0,0.0,0.0,0.0,0.0,0.0,0.0,0.0,0.0,0.0,0.0,0.0,0.0,0.0,0.0,0.0,0.0,0.0,0.0,0.0,0.0,0.0,0.0,0.0,0.0,0.0,0.0,0.0,0.0,0.0,0.0,0.0,0.0,0.0,0.0,0.0,0.0,0.0,0.0,0.0,0.0,0.0,0.0,0.0,0.0,0.0,0.0,0.0,0.0,0.0,0.0,0.0,0.0,0.0,0.0,0.0,0.0,0.0,0.0,0.0,0.0,0.0,0.0,0.0,0.0,0.0,0.0,0.0,0.0,0.0,0.0,0.0,0.0,0.0,0.0,0.0,0.0,0.0,0.0,0.0,0.0,0.0,0.0,0.0,0.0,0.0,0.0,0.0,0.0,0.0,0.0,0.0,0.0,0.0,0.0
1.0,0.9807692170143129,0.8004807829856871,0.4338942170143128,0.12259615212678908,0.0961538478732109,0.12259615212678908,0.09254807978868483,0.06370192021131516,0.05889423191547394,0.05048076808452606,0.03605769202113152,0.02764423005282879,0.016826923936605453,0.012019230984151363,0.009615384973585604,0.0,0.00360576924867928,0.00721153849735856,0.009615384973585604,0.019230769947171208,0.03605769202113152,0.06370192021131516,0.08894230425357817,0.10817307978868484,0.13942307233810425,0.16706730425357819,0.19591346383094788,0.2235576957464218,0.24879807233810425,0.2704326808452606,0.2716346085071564,0.2632211446762085,0.26923078298568726,0.2704326808452606,0.2608173191547394,0.24879807233810425,0.22596153616905207,0.2223557680845261,0.21394230425357816,0.1971153914928436,0.19831730425357816,0.1971153914928436,0.19831730425357816,0.2079326957464218,0.203125,0.21875,0.21995192766189572,0.2319711595773697,0.2548076808452606,0.26923078298568726,0.27764421701431274,0.2824519276618957,0.2596153914928436,0.2283653914928436,0.2079326957464218,0.19471153616905207,0.1971153914928436,0.19831730425357816,0.20192307233810425,0.2091346085071564,0.20192307233810425,0.20432692766189572,0.1911057680845261,0.19591346383094788,0.3389423191547394,0.6177884340286255,0.8629807829856871,0.8052884340286256,0.47716346383094793,0.16225960850715637,0.01802884601056576,0.06850961595773697,0.13221153616905212,0.1430288404226303,0.12860576808452606,0.12379807978868484,0.12379807978868484,0.11658653616905212,0.12259615212678908,0.11899038404226304,0.0,0.0,0.0,0.0,0.0,0.0,0.0,0.0,0.0,0.0,0.0,0.0,0.0,0.0,0.0,0.0,0.0,0.0,0.0,0.0,0.0,0.0,0.0,0.0,0.0,0.0,0.0,0.0,0.0,0.0,0.0,0.0,0.0,0.0,0.0,0.0,0.0,0.0,0.0,0.0,0.0,0.0,0.0,0.0,0.0,0.0,0.0,0.0,0.0,0.0,0.0,0.0,0.0,0.0,0.0,0.0,0.0,0.0,0.0,0.0,0.0,0.0,0.0,0.0,0.0,0.0,0.0,0.0,0.0,0.0,0.0,0.0,0.0,0.0,0.0,0.0,0.0,0.0,0.0,0.0,0.0,0.0,0.0,0.0,0.0,0.0,0.0,0.0,0.0,0.0,0.0,0.0,0.0,0.0,0.0,0.0,0.0,0.0,0.0,0.0,0.0,0.0,0.0,0.0,0.0,0.0
1.0,0.9507575631141663,0.4962121248245239,0.018939394503831863,0.06439393758773804,0.3390151560306549,0.46212121844291687,0.4791666567325592,0.4829545319080353,0.49053031206130976,0.4962121248245239,0.498106062412262,0.501893937587738,0.5170454382896423,0.5208333134651184,0.5246211886405945,0.5397727489471436,0.554924249649048,0.560606062412262,0.5681818127632141,0.5965909361839294,0.6136363744735718,0.617424249649048,0.626893937587738,0.6477272510528564,0.6534090638160706,0.6477272510528564,0.6363636255264281,0.6382575631141664,0.6382575631141664,0.6325757503509521,0.6155303120613098,0.6079545617103577,0.5909090638160706,0.554924249649048,0.5246211886405945,0.5189393758773804,0.5151515007019042,0.5,0.5,0.5056818127632141,0.5075757503509521,0.5151515007019042,0.5094696879386902,0.5132575631141664,0.5227272510528564,0.5189393758773804,0.5094696879386902,0.5132575631141664,0.5113636255264281,0.501893937587738,0.49053031206130976,0.49431818723678583,0.4924242496490479,0.4886363744735718,0.4772727191448212,0.4791666567325592,0.4810605943202973,0.4772727191448212,0.47348484396934504,0.48674243688583374,0.5056818127632141,0.5094696879386902,0.5,0.5227272510528564,0.5284090638160706,0.5056818127632141,0.4962121248245239,0.4924242496490479,0.4791666567325592,0.4602272808551788,0.44507575035095215,0.4375,0.44507575035095215,0.44886362552642817,0.4412878751754761,0.44318181276321406,0.4564394056797028,0.4507575631141663,0.4564394056797028,0.4715909063816071,0.5359848737716675,0.7064393758773804,0.9393939375877379,0.9943181872367859,0.7026515007019042,0.21212121844291687,0.0,0.23674242198467252,0.4375,0.4848484992980957,0.47348484396934504,0.4848484992980957,0.498106062412262,0.498106062412262,0.501893937587738,0.5113636255264281,0.5227272510528564,0.5246211886405945,0.5321969985961914,0.5416666865348816,0.0,0.0,0.0,0.0,0.0,0.0,0.0,0.0,0.0,0.0,0.0,0.0,0.0,0.0,0.0,0.0,0.0,0.0,0.0,0.0,0.0,0.0,0.0,0.0,0.0,0.0,0.0,0.0,0.0,0.0,0.0,0.0,0.0,0.0,0.0,0.0,0.0,0.0,0.0,0.0,0.0,0.0,0.0,0.0,0.0,0.0,0.0,0.0,0.0,0.0,0.0,0.0,0.0,0.0,0.0,0.0,0.0,0.0,0.0,0.0,0.0,0.0,0.0,0.0,0.0,0.0,0.0,0.0,0.0,0.0,0.0,0.0,0.0,0.0,0.0,0.0,0.0,0.0,0.0,0.0,0.0,0.0,0.0,0.0,0.0,0.0
1.0,0.9684343338012696,0.8030303120613098,0.5239899158477783,0.42424243688583374,0.3775252401828766,0.34217172861099243,0.31818181276321406,0.3131313025951385,0.29924243688583374,0.2941919267177582,0.2790403962135315,0.27146464586257935,0.2601010203361511,0.2613636255264282,0.24873737990856168,0.24621212482452393,0.22979797422885892,0.22095958888530728,0.199494943022728,0.18939393758773804,0.16161616146564484,0.14393939077854156,0.11237373948097228,0.09469696879386899,0.07070706784725189,0.05429292842745781,0.027777777984738346,0.01262626238167286,0.0012626262614503503,0.0012626262614503503,0.0,0.020202020183205605,0.027777777984738346,0.05429292842745781,0.07449495047330856,0.1098484843969345,0.1388888955116272,0.1805555522441864,0.21085858345031736,0.2474747449159622,0.2752525210380554,0.31186869740486145,0.3295454680919647,0.35353535413742065,0.3611111044883728,0.39015150070190424,0.39898988604545593,0.4217171669006348,0.4204545319080353,0.4343434274196625,0.4330808222293854,0.4494949579238892,0.4494949579238892,0.46590909361839294,0.463383823633194,0.47348484396934504,0.46590909361839294,0.4722222089767456,0.46843433380126953,0.47601011395454407,0.46969696879386896,0.47348484396934504,0.463383823633194,0.4709596037864685,0.46969696879386896,0.4810605943202973,0.4709596037864685,0.47979798913002014,0.4785353541374207,0.48737373948097223,0.48232322931289673,0.4898989796638489,0.47979798913002014,0.4898989796638489,0.4785353541374207,0.4861111044883728,0.47979798913002014,0.4886363744735718,0.4810605943202973,0.48358586430549616,0.47348484396934504,0.47979798913002014,0.4747474789619446,0.48358586430549616,0.48737373948097223,0.49747475981712336,0.4861111044883728,0.4924242496490479,0.48737373948097223,0.4911616146564484,0.48737373948097223,0.4886363744735718,0.4861111044883728,0.4898989796638489,0.48358586430549616,0.48737373948097223,0.47601011395454407,0.4886363744735718,0.4898989796638489,0.49747475981712336,0.4962121248245239,0.5101010203361511,0.5101010203361511,0.5946969985961914,0.875,0.7613636255264281,0.7007575631141664,0.6351010203361511,0.5517676472663879,0.4671717286109924,0.3522727191448212,0.2361111044883728,0.16287878155708313,0.1237373724579811,0.1401515156030655,0.20202019810676572,0.2537878751754761,0.35353535413742065,0.40656566619873047,0.46969696879386896,0.5151515007019042,0.5353535413742065,0.0,0.0,0.0,0.0,0.0,0.0,0.0,0.0,0.0,0.0,0.0,0.0,0.0,0.0,0.0,0.0,0.0,0.0,0.0,0.0,0.0,0.0,0.0,0.0,0.0,0.0,0.0,0.0,0.0,0.0,0.0,0.0,0.0,0.0,0.0,0.0,0.0,0.0,0.0,0.0,0.0,0.0,0.0,0.0,0.0,0.0,0.0,0.0,0.0,0.0,0.0,0.0,0.0,0.0,0.0,0.0,0.0,0.0,0.0,0.0,0.0,0.0,0.0,0.0
1.0,0.9409019947052002,0.6827371716499329,0.39813375473022466,0.21928460896015167,0.18195956945419312,0.214618980884552,0.24261274933815,0.31726282835006714,0.4230171144008637,0.48367029428482056,0.48678070306777954,0.4805598855018616,0.48989114165306086,0.4914463460445404,0.4883359372615814,0.4805598855018616,0.48211508989334106,0.48367029428482056,0.47278383374214167,0.47122862935066223,0.4790046513080597,0.4743390381336212,0.4743390381336212,0.4852254986763,0.5007776021957396,0.5209953188896179,0.5396578311920166,0.5583203434944153,0.5800933241844177,0.6018662452697754,0.6111975312232971,0.6096423268318176,0.6096423268318176,0.6080870628356934,0.5925350189208984,0.5785381197929382,0.5785381197929382,0.5660964250564575,0.5552099347114562,0.5505443215370177,0.5505443215370177,0.5520995259284973,0.5552099347114562,0.564541220664978,0.5894245505332947,0.6298600435256958,0.6874027848243712,0.7433903813362122,0.7558320164680482,0.653188169002533,0.4790046513080597,0.2799378037452698,0.11664074659347534,0.0,0.0,0.05287713930010796,0.15707620978355408,0.2488335967063904,0.30171072483062744,0.3732503950595856,0.44790047407150263,0.5209953188896179,0.6065318584442139,0.6578537821769713,0.6702954769134521,0.6718506813049316,0.6656298637390137,0.6671850681304932,0.6827371716499329,0.6936236619949341,0.7013996839523315,0.70606529712677,0.7216174006462097,0.0,0.0,0.0,0.0,0.0,0.0,0.0,0.0,0.0,0.0,0.0,0.0,0.0,0.0,0.0,0.0,0.0,0.0,0.0,0.0,0.0,0.0,0.0,0.0,0.0,0.0,0.0,0.0,0.0,0.0,0.0,0.0,0.0,0.0,0.0,0.0,0.0,0.0,0.0,0.0,0.0,0.0,0.0,0.0,0.0,0.0,0.0,0.0,0.0,0.0,0.0,0.0,0.0,0.0,0.0,0.0,0.0,0.0,0.0,0.0,0.0,0.0,0.0,0.0,0.0,0.0,0.0,0.0,0.0,0.0,0.0,0.0,0.0,0.0,0.0,0.0,0.0,0.0,0.0,0.0,0.0,0.0,0.0,0.0,0.0,0.0,0.0,0.0,0.0,0.0,0.0,0.0,0.0,0.0,0.0,0.0,0.0,0.0,0.0,0.0,0.0,0.0,0.0,0.0,0.0,0.0,0.0,0.0,0.0,0.0,0.0,0.0,0.0
1.0,0.5698529481887816,0.0,0.08455882221460342,0.1617647111415863,0.12132352590560912,0.09926470369100569,0.09558823704719543,0.0882352963089943,0.09558823704719543,0.10661764442920683,0.10294117778539656,0.09558823704719543,0.09926470369100569,0.11764705926179884,0.11397058516740798,0.11764705926179884,0.125,0.12867647409439087,0.12867647409439087,0.12132352590560912,0.1323529481887817,0.1360294073820114,0.14338235557079315,0.1323529481887817,0.1323529481887817,0.14705882966518402,0.1360294073820114,0.1360294073820114,0.14705882966518402,0.18382352590560916,0.1948529481887817,0.19117647409439087,0.1948529481887817,0.21691176295280457,0.209558829665184,0.1875,0.17279411852359772,0.16544117033481595,0.14705882966518402,0.11764705926179884,0.125,0.125,0.125,0.10661764442920683,0.11029411852359772,0.11764705926179884,0.11397058516740798,0.10661764442920683,0.10294117778539656,0.11397058516740798,0.10661764442920683,0.0882352963089943,0.0882352963089943,0.09558823704719543,0.09926470369100569,0.09191176295280457,0.09191176295280457,0.09926470369100569,0.08455882221460342,0.07720588147640227,0.0882352963089943,0.09558823704719543,0.09926470369100569,0.09191176295280457,0.11764705926179884,0.1323529481887817,0.15073528885841367,0.15073528885841367,0.12867647409439087,0.125,0.1323529481887817,0.10294117778539656,0.0882352963089943,0.08088235557079315,0.07352941483259201,0.05882352963089943,0.06617647409439087,0.0882352963089943,0.08088235557079315,0.0625,0.018382353708148,0.09558823704719543,0.44117647409439087,0.9485294222831726,0.7720588445663453,0.05514705926179886,0.014705882407724856,0.1360294073820114,0.125,0.10294117778539656,0.10294117778539656,0.09191176295280457,0.0882352963089943,0.09926470369100569,0.09191176295280457,0.0882352963089943,0.09558823704719543,0.11029411852359772,0.10661764442920683,0.10661764442920683,0.0,0.0,0.0,0.0,0.0,0.0,0.0,0.0,0.0,0.0,0.0,0.0,0.0,0.0,0.0,0.0,0.0,0.0,0.0,0.0,0.0,0.0,0.0,0.0,0.0,0.0,0.0,0.0,0.0,0.0,0.0,0.0,0.0,0.0,0.0,0.0,0.0,0.0,0.0,0.0,0.0,0.0,0.0,0.0,0.0,0.0,0.0,0.0,0.0,0.0,0.0,0.0,0.0,0.0,0.0,0.0,0.0,0.0,0.0,0.0,0.0,0.0,0.0,0.0,0.0,0.0,0.0,0.0,0.0,0.0,0.0,0.0,0.0,0.0,0.0,0.0,0.0,0.0,0.0,0.0,0.0,0.0,0.0,0.0,0.0,0.0
0.9031876921653748,0.8476977348327636,0.7886658906936644,0.7331759333610535,0.6646989583969116,0.5891381502151489,0.521841824054718,0.4238488674163818,0.34356552362442017,0.2691853642463684,0.27272728085517883,0.2538370788097381,0.22077922523021695,0.15348288416862488,0.15466351807117462,0.21723730862140653,0.30106258392333984,0.3057851195335388,0.3258559703826904,0.32231405377388,0.3234946727752685,0.33766233921051025,0.3636363744735718,0.38961037993431086,0.43093270063400263,0.4651711881160736,0.5029516220092772,0.5088548064231873,0.5182998776435852,0.526564359664917,0.5395513772964478,0.5560802817344666,0.5572609305381775,0.5655254125595093,0.5855962038040161,0.591499388217926,0.6221959590911865,0.6363636255264281,0.6658795475959778,0.6953955292701721,0.7249114513397216,0.7461629509925841,0.7615112066268922,0.7685950398445129,0.763872504234314,0.7556080222129821,0.7461629509925841,0.7284533381462097,0.701298713684082,0.6717827916145325,0.6316410899162292,0.5820543169975281,0.5442739129066467,0.5171192288398743,0.48996457457542414,0.4651711881160736,0.4510035514831543,0.44391971826553345,0.4474616348743439,0.4297520518302917,0.42621016502380366,0.4179456830024719,0.4238488674163818,0.40968123078346247,0.42030698060989374,0.4167650640010834,0.4167650640010834,0.41322314739227295,0.41912633180618286,0.4179456830024719,0.4285714328289032,0.4226682484149933,0.43683588504791254,0.4238488674163818,0.43683588504791254,0.4332939684391022,0.435655266046524,0.441558450460434,0.441558450460434,0.43801653385162354,0.4474616348743439,0.44273906946182245,0.4474616348743439,0.44391971826553345,0.45572608709335327,0.4486422538757324,0.4604486525058746,0.44982290267944336,0.46399056911468506,0.45572608709335327,0.4616292715072632,0.4592680037021637,0.46280992031097407,0.4651711881160736,0.4757969379425049,0.47343567013740534,0.46989375352859497,0.4805194735527039,0.48406139016151434,0.4958677589893341,0.5395513772964478,0.8488783836364746,1.0,0.9173553586006163,0.8595041036605835,0.7839433550834655,0.7131050825119019,0.6316410899162292,0.5088548064231873,0.3754427433013916,0.25147581100463867,0.15466351807117462,0.12278630584478378,0.09563164412975313,0.0531286895275116,0.0,0.015348288230597971,0.12278630584478378,0.23966942727565765,0.28925618529319763,0.32939788699150085,0.3600944578647613,0.3813459277153015,0.0,0.0,0.0,0.0,0.0,0.0,0.0,0.0,0.0,0.0,0.0,0.0,0.0,0.0,0.0,0.0,0.0,0.0,0.0,0.0,0.0,0.0,0.0,0.0,0.0,0.0,0.0,0.0,0.0,0.0,0.0,0.0,0.0,0.0,0.0,0.0,0.0,0.0,0.0,0.0,0.0,0.0,0.0,0.0,0.0,0.0,0.0,0.0,0.0,0.0,0.0,0.0,0.0,0.0,0.0,0.0,0.0,0.0,0.0,0.0,0.0,0.0,0.0,0.0
0.9905660152435303,0.801886796951294,0.15094339847564697,0.0,0.07075471431016922,0.12264151126146317,0.11320754885673522,0.16509434580802915,0.17924527823925018,0.1603773534297943,0.16509434580802915,0.19811320304870603,0.2688679099082947,0.3537735939025879,0.349056601524353,0.33018869161605835,0.33018869161605835,0.33018869161605835,0.3632075488567352,0.3584905564785004,0.34433960914611816,0.34433960914611816,0.37264150381088257,0.3632075488567352,0.3632075488567352,0.39622640609741205,0.4198113083839417,0.4292452931404114,0.4433962404727936,0.48584905266761774,0.5235849022865297,0.551886796951294,0.5566037893295288,0.5849056839942932,0.6132075190544128,0.5990566015243529,0.5943396091461182,0.6084905862808228,0.5754716992378235,0.5188679099082947,0.4669811427593231,0.4292452931404114,0.42452830076217646,0.39622640609741205,0.3632075488567352,0.3396226465702057,0.3584905564785004,0.3207547068595886,0.2971698045730591,0.3207547068595886,0.3207547068595886,0.31603774428367615,0.28773584961891174,0.2924528419971466,0.3113207519054413,0.3066037595272064,0.30188679695129395,0.2830188572406769,0.2783018946647644,0.2830188572406769,0.27358490228652954,0.30188679695129395,0.3254716992378235,0.3396226465702057,0.3349056541919708,0.3396226465702057,0.33018869161605835,0.33018869161605835,0.3396226465702057,0.33018869161605835,0.3254716992378235,0.31603774428367615,0.31603774428367615,0.3113207519054413,0.3396226465702057,0.3254716992378235,0.2971698045730591,0.3207547068595886,0.31603774428367615,0.3066037595272064,0.31603774428367615,0.3349056541919708,0.349056601524353,0.33018869161605835,0.31603774428367615,0.31603774428367615,0.349056601524353,0.37264150381088257,0.4292452931404114,0.5943396091461182,0.8915094137191772,1.0,0.4433962404727936,0.01886792480945587,0.06132075563073158,0.09433962404727936,0.11792452633380889,0.1320754736661911,0.21698112785816193,0.17924527823925018,0.1603773534297943,0.20754717290401456,0.2924528419971466,0.349056601524353,0.33018869161605835,0.34433960914611816,0.3679245412349701,0.34433960914611816,0.0,0.0,0.0,0.0,0.0,0.0,0.0,0.0,0.0,0.0,0.0,0.0,0.0,0.0,0.0,0.0,0.0,0.0,0.0,0.0,0.0,0.0,0.0,0.0,0.0,0.0,0.0,0.0,0.0,0.0,0.0,0.0,0.0,0.0,0.0,0.0,0.0,0.0,0.0,0.0,0.0,0.0,0.0,0.0,0.0,0.0,0.0,0.0,0.0,0.0,0.0,0.0,0.0,0.0,0.0,0.0,0.0,0.0,0.0,0.0,0.0,0.0,0.0,0.0,0.0,0.0,0.0,0.0,0.0,0.0,0.0,0.0,0.0,0.0,0.0,0.0,0.0,0.0,0.0
0.5601436495780945,0.4219030439853668,0.2782764732837677,0.11849191784858704,0.0,0.00538599630817771,0.03949730843305588,0.052064631134271615,0.07181328535079956,0.12028725445270538,0.16337522864341736,0.21005386114120483,0.2387791723012924,0.23698383569717407,0.23159784078598025,0.2405745089054108,0.24775584042072296,0.2405745089054108,0.2351885139942169,0.2423698455095291,0.25493717193603516,0.24416516721248624,0.2423698455095291,0.2531418204307556,0.26929983496665955,0.28725314140319824,0.30161580443382263,0.32854577898979187,0.3590664267539978,0.38240575790405273,0.40394973754882807,0.43087971210479736,0.45780968666076655,0.46678635478019714,0.46499103307724,0.46678635478019714,0.46499103307724,0.4488330483436584,0.42010772228240967,0.4021543860435486,0.3877917528152466,0.3590664267539978,0.3375224471092224,0.3267504572868347,0.32136446237564087,0.3070017993450165,0.29443445801734924,0.2926391363143921,0.29802513122558594,0.2926391363143921,0.28904846310615534,0.2926391363143921,0.29443445801734924,0.2962298095226288,0.2854578197002411,0.29084381461143494,0.29802513122558594,0.2926391363143921,0.28366246819496155,0.28904846310615534,0.29443445801734924,0.28904846310615534,0.28007182478904724,0.2854578197002411,0.29084381461143494,0.2854578197002411,0.27289047837257385,0.28366246819496155,0.2854578197002411,0.2854578197002411,0.28007182478904724,0.28007182478904724,0.2818671464920044,0.28725314140319824,0.2782764732837677,0.28366246819496155,0.29084381461143494,0.29443445801734924,0.29443445801734924,0.2962298095226288,0.30520647764205927,0.3123877942562103,0.32136446237564087,0.33213645219802856,0.3375224471092224,0.3267504572868347,0.3105924725532532,0.2962298095226288,0.2926391363143921,0.2782764732837677,0.26750448346138,0.26750448346138,0.28007182478904724,0.27648115158081055,0.28007182478904724,0.29084381461143494,0.323159784078598,0.3895870745182037,0.5080789923667908,0.7001795172691345,0.8671454191207885,1.0,0.9569120407104493,0.5242369771003723,0.1974865347146988,0.18132854998111725,0.2118491977453232,0.22262118756771088,0.23159784078598025,0.22262118756771088,0.21723519265651703,0.21543985605239868,0.21903051435947415,0.0,0.0,0.0,0.0,0.0,0.0,0.0,0.0,0.0,0.0,0.0,0.0,0.0,0.0,0.0,0.0,0.0,0.0,0.0,0.0,0.0,0.0,0.0,0.0,0.0,0.0,0.0,0.0,0.0,0.0,0.0,0.0,0.0,0.0,0.0,0.0,0.0,0.0,0.0,0.0,0.0,0.0,0.0,0.0,0.0,0.0,0.0,0.0,0.0,0.0,0.0,0.0,0.0,0.0,0.0,0.0,0.0,0.0,0.0,0.0,0.0,0.0,0.0,0.0,0.0,0.0,0.0,0.0,0.0,0.0,0.0,0.0,0.0,0.0
0.8571428656578064,1.0,0.5030180811882019,0.1488933563232422,0.08651911467313766,0.08651911467313766,0.05030181258916855,0.03822937607765198,0.032193157821893685,0.03621730208396912,0.03621730208396912,0.044265594333410256,0.03420523181557655,0.05231388285756111,0.05030181258916855,0.062374245375394814,0.056338027119636536,0.07847082614898682,0.08651911467313766,0.09255532920360564,0.10060362517833708,0.12273641675710678,0.11468812823295592,0.1408450752496719,0.1408450752496719,0.1428571492433548,0.1428571492433548,0.13883300125598907,0.11468812823295592,0.11267605423927309,0.09657947719097136,0.08249496668577194,0.07243460416793822,0.07042253762483597,0.07042253762483597,0.07042253762483597,0.06036217138171196,0.062374245375394814,0.062374245375394814,0.0744466781616211,0.062374245375394814,0.06639838963747025,0.05231388285756111,0.04828973859548569,0.07243460416793822,0.09255532920360564,0.08048290014266966,0.08249496668577194,0.10261569172143936,0.12072434276342392,0.11468812823295592,0.08651911467313766,0.062374245375394814,0.05030181258916855,0.01810865104198456,0.022132797166705128,0.044265594333410256,0.0583501011133194,0.0684104636311531,0.07243460416793822,0.0684104636311531,0.046277664601802826,0.12877263128757477,0.3661971688270569,0.6700201034545897,0.5372233390808105,0.1106639802455902,0.06639838963747025,0.05030181258916855,0.07243460416793822,0.03420523181557655,0.03420523181557655,0.008048289455473423,0.010060362517833708,0.008048289455473423,0.01207243464887142,0.0,0.016096578910946846,0.026156941428780556,0.0,0.0,0.0,0.0,0.0,0.0,0.0,0.0,0.0,0.0,0.0,0.0,0.0,0.0,0.0,0.0,0.0,0.0,0.0,0.0,0.0,0.0,0.0,0.0,0.0,0.0,0.0,0.0,0.0,0.0,0.0,0.0,0.0,0.0,0.0,0.0,0.0,0.0,0.0,0.0,0.0,0.0,0.0,0.0,0.0,0.0,0.0,0.0,0.0,0.0,0.0,0.0,0.0,0.0,0.0,0.0,0.0,0.0,0.0,0.0,0.0,0.0,0.0,0.0,0.0,0.0,0.0,0.0,0.0,0.0,0.0,0.0,0.0,0.0,0.0,0.0,0.0,0.0,0.0,0.0,0.0,0.0,0.0,0.0,0.0,0.0,0.0,0.0,0.0,0.0,0.0,0.0,0.0,0.0,0.0,0.0,0.0,0.0,0.0,0.0,0.0,0.0,0.0,0.0,0.0,0.0,0.0,0.0
1.0,0.8964646458625793,0.6944444179534912,0.39646464586257935,0.24494948983192444,0.219696968793869,0.18939393758773804,0.1818181872367859,0.17171716690063477,0.1540404111146927,0.15909090638160703,0.16161616146564484,0.1641414165496826,0.16161616146564484,0.16161616146564484,0.1641414165496826,0.18434342741966248,0.1944444477558136,0.20454545319080353,0.21717171370983124,0.24494948983192444,0.2575757503509521,0.2550505101680756,0.27020201086997986,0.30050504207611084,0.310606062412262,0.3207070827484131,0.2954545319080353,0.2954545319080353,0.26767677068710327,0.2601010203361511,0.2550505101680756,0.2550505101680756,0.2474747449159622,0.26262626051902765,0.2474747449159622,0.2525252401828766,0.22979797422885892,0.22979797422885892,0.21212121844291687,0.2095959633588791,0.1944444477558136,0.20707070827484128,0.20202019810676572,0.22474747896194455,0.219696968793869,0.23484848439693448,0.21717171370983124,0.21717171370983124,0.21717171370983124,0.22979797422885892,0.2222222238779068,0.23484848439693448,0.2095959633588791,0.20202019810676572,0.18686868250370023,0.18434342741966248,0.1666666716337204,0.14898990094661713,0.14898990094661713,0.15656565129756927,0.1388888955116272,0.14898990094661713,0.14393939077854156,0.14141413569450378,0.1388888955116272,0.1641414165496826,0.16161616146564484,0.1666666716337204,0.16919191181659698,0.1792929321527481,0.18939393758773804,0.20454545319080353,0.20202019810676572,0.1919191926717758,0.18434342741966248,0.18434342741966248,0.17171716690063477,0.16919191181659698,0.16919191181659698,0.17171716690063477,0.17424242198467255,0.1666666716337204,0.1666666716337204,0.1818181872367859,0.17424242198467255,0.1792929321527481,0.22979797422885892,0.2777777910232544,0.3207070827484131,0.39898988604545593,0.560606062412262,0.6767676472663879,0.7525252699851989,0.6666666865348816,0.46212121844291687,0.21464645862579343,0.08585858345031738,0.06818182021379471,0.03030303120613098,0.02272727340459824,0.020202020183205605,0.01515151560306549,0.0,0.0025252525229007006,0.0,0.010101010091602802,0.005050505045801401,0.010101010091602802,0.0,0.0,0.0,0.0,0.0,0.0,0.0,0.0,0.0,0.0,0.0,0.0,0.0,0.0,0.0,0.0,0.0,0.0,0.0,0.0,0.0,0.0,0.0,0.0,0.0,0.0,0.0,0.0,0.0,0.0,0.0,0.0,0.0,0.0,0.0,0.0,0.0,0.0,0.0,0.0,0.0,0.0,0.0,0.0,0.0,0.0,0.0,0.0,0.0,0.0,0.0,0.0,0.0,0.0,0.0,0.0,0.0,0.0,0.0,0.0,0.0,0.0,0.0,0.0,0.0,0.0,0.0,0.0,0.0,0.0,0.0,0.0,0.0,0.0,0.0,0.0,0.0,0.0
1.0,0.9520000219345092,0.7645714282989502,0.486857146024704,0.21371428668498993,0.1599999964237213,0.16799999773502347,0.13257142901420593,0.11999999731779099,0.10742857307195663,0.0868571400642395,0.0788571462035179,0.0674285739660263,0.051428571343421936,0.036571428179740906,0.028571428731083866,0.025142857804894447,0.012571428902447224,0.0,0.00800000037997961,0.01600000075995922,0.01600000075995922,0.02971428632736206,0.049142856150865555,0.07657142728567123,0.1120000034570694,0.1291428506374359,0.15771429240703583,0.19200000166893005,0.2205714285373688,0.25028571486473083,0.28457143902778625,0.3051428496837616,0.31771427392959595,0.324571430683136,0.32571429014205927,0.33142855763435364,0.32342857122421265,0.3108571469783783,0.31200000643730164,0.3017142713069916,0.28685712814331055,0.28114286065101624,0.28342857956886286,0.2891428470611572,0.2914285659790039,0.2914285659790039,0.2971428632736206,0.313142865896225,0.33142855763435364,0.3462857007980346,0.3588571548461914,0.37142857909202576,0.3737142980098724,0.3554285764694214,0.321142852306366,0.3074285686016083,0.29600000381469727,0.29028570652008057,0.2971428632736206,0.2994285821914673,0.2948571443557739,0.29828572273254395,0.3005714416503906,0.29828572273254395,0.28342857956886286,0.3165714144706726,0.5165714025497437,0.8068571686744691,0.9279999732971193,0.7737143039703369,0.5040000081062317,0.25371429324150085,0.16685713827610016,0.24914285540580747,0.2697142958641052,0.25028571486473083,0.24228571355342865,0.23771429061889648,0.23885715007781985,0.23199999332427976,0.2342857122421265,0.23314285278320312,0.0,0.0,0.0,0.0,0.0,0.0,0.0,0.0,0.0,0.0,0.0,0.0,0.0,0.0,0.0,0.0,0.0,0.0,0.0,0.0,0.0,0.0,0.0,0.0,0.0,0.0,0.0,0.0,0.0,0.0,0.0,0.0,0.0,0.0,0.0,0.0,0.0,0.0,0.0,0.0,0.0,0.0,0.0,0.0,0.0,0.0,0.0,0.0,0.0,0.0,0.0,0.0,0.0,0.0,0.0,0.0,0.0,0.0,0.0,0.0,0.0,0.0,0.0,0.0,0.0,0.0,0.0,0.0,0.0,0.0,0.0,0.0,0.0,0.0,0.0,0.0,0.0,0.0,0.0,0.0,0.0,0.0,0.0,0.0,0.0,0.0,0.0,0.0,0.0,0.0,0.0,0.0,0.0,0.0,0.0,0.0,0.0,0.0,0.0,0.0,0.0,0.0,0.0,0.0
0.0,0.027419354766607285,0.11451613157987595,0.2064516097307205,0.3354838788509369,0.3951613008975983,0.43064516782760626,0.4870967864990234,0.5129032135009766,0.5580645203590393,0.6193548440933228,0.6854838728904724,0.7241935729980468,0.7645161151885985,0.7806451320648193,0.801612913608551,0.7967742085456848,0.8193548321723939,0.8419354557991027,0.8709677457809448,0.875806450843811,0.8999999761581421,0.9177419543266296,0.9338709712028505,0.9354838728904723,0.9435483813285828,0.929032266139984,0.929032266139984,0.9177419543266296,0.8999999761581421,0.874193549156189,0.8451613187789918,0.8225806355476379,0.7951613068580627,0.7435483932495117,0.7338709831237794,0.7241935729980468,0.7129032015800476,0.6887096762657166,0.6806451678276062,0.6693548560142517,0.6822580695152283,0.6580645442008972,0.6693548560142517,0.6645161509513855,0.6693548560142517,0.6580645442008972,0.6645161509513855,0.6709677577018738,0.64838707447052,0.646774172782898,0.6516128778457642,0.64838707447052,0.6548386812210083,0.6403225660324097,0.6451612710952759,0.6532257795333862,0.6274193525314331,0.6306451559066772,0.6354838609695435,0.6370967626571655,0.6403225660324097,0.6354838609695435,0.6532257795333862,0.646774172782898,0.6516128778457642,0.6516128778457642,0.6580645442008972,0.6612903475761414,0.6612903475761414,0.6548386812210083,0.6532257795333862,0.6532257795333862,0.6596774458885193,0.6370967626571655,0.6403225660324097,0.6290322542190552,0.6306451559066772,0.6290322542190552,0.6354838609695435,0.6290322542190552,0.6338709592819214,0.6290322542190552,0.6354838609695435,0.6306451559066772,0.625806450843811,0.6709677577018738,0.7548387050628662,0.8387096524238585,0.9354838728904723,1.0,0.9258064627647402,0.7516129016876221,0.5790322422981262,0.5596774220466614,0.5887096524238585,0.5919354557991028,0.5951613187789917,0.5790322422981262,0.5838709473609924,0.5951613187789917,0.5951613187789917,0.5983871221542358,0.0,0.0,0.0,0.0,0.0,0.0,0.0,0.0,0.0,0.0,0.0,0.0,0.0,0.0,0.0,0.0,0.0,0.0,0.0,0.0,0.0,0.0,0.0,0.0,0.0,0.0,0.0,0.0,0.0,0.0,0.0,0.0,0.0,0.0,0.0,0.0,0.0,0.0,0.0,0.0,0.0,0.0,0.0,0.0,0.0,0.0,0.0,0.0,0.0,0.0,0.0,0.0,0.0,0.0,0.0,0.0,0.0,0.0,0.0,0.0,0.0,0.0,0.0,0.0,0.0,0.0,0.0,0.0,0.0,0.0,0.0,0.0,0.0,0.0,0.0,0.0,0.0,0.0,0.0,0.0,0.0,0.0,0.0,0.0
